June 16, 2025   15:56:50
Differential Pulse Voltammetry
File: 250616_pprot382int_2007b_0um_ai1_s4_ericmm_gce_dpv.bin
Data Source:  Experiment
Instrument Model:  CHI1040C
Header: 
Note: 

Init E (V) = -0.5
Final E (V) = 0
Incr E (V) = 0.002
Amplitude (V) = 0.05
Pulse Width (sec) = 0.075
Sample Width (sec) = 0.0167
Pulse Period (sec) = 0.5
Quiet Time (sec) = 2
Sensitivity (A/V) = 1e-5

Results:

Channel 1:
Ep = -0.140V
ip = -1.878e-8A
Ap = -2.280e-9VA

Potential/V, Current/A

-0.498, -2.678e-6
-0.496, -2.637e-6
-0.494, -2.601e-6
-0.492, -2.569e-6
-0.490, -2.541e-6
-0.488, -2.514e-6
-0.486, -2.491e-6
-0.484, -2.469e-6
-0.482, -2.447e-6
-0.480, -2.428e-6
-0.478, -2.410e-6
-0.476, -2.392e-6
-0.474, -2.374e-6
-0.472, -2.358e-6
-0.470, -2.342e-6
-0.468, -2.327e-6
-0.466, -2.312e-6
-0.464, -2.298e-6
-0.462, -2.284e-6
-0.460, -2.270e-6
-0.458, -2.257e-6
-0.456, -2.244e-6
-0.454, -2.232e-6
-0.452, -2.220e-6
-0.450, -2.208e-6
-0.448, -2.198e-6
-0.446, -2.187e-6
-0.444, -2.176e-6
-0.442, -2.166e-6
-0.440, -2.156e-6
-0.438, -2.146e-6
-0.436, -2.136e-6
-0.434, -2.126e-6
-0.432, -2.118e-6
-0.430, -2.109e-6
-0.428, -2.101e-6
-0.426, -2.092e-6
-0.424, -2.085e-6
-0.422, -2.077e-6
-0.420, -2.069e-6
-0.418, -2.060e-6
-0.416, -2.053e-6
-0.414, -2.045e-6
-0.412, -2.038e-6
-0.410, -2.030e-6
-0.408, -2.023e-6
-0.406, -2.015e-6
-0.404, -2.008e-6
-0.402, -2.000e-6
-0.400, -1.993e-6
-0.398, -1.986e-6
-0.396, -1.980e-6
-0.394, -1.972e-6
-0.392, -1.966e-6
-0.390, -1.959e-6
-0.388, -1.952e-6
-0.386, -1.945e-6
-0.384, -1.939e-6
-0.382, -1.932e-6
-0.380, -1.926e-6
-0.378, -1.919e-6
-0.376, -1.913e-6
-0.374, -1.907e-6
-0.372, -1.900e-6
-0.370, -1.893e-6
-0.368, -1.887e-6
-0.366, -1.882e-6
-0.364, -1.876e-6
-0.362, -1.869e-6
-0.360, -1.863e-6
-0.358, -1.858e-6
-0.356, -1.853e-6
-0.354, -1.847e-6
-0.352, -1.842e-6
-0.350, -1.837e-6
-0.348, -1.832e-6
-0.346, -1.827e-6
-0.344, -1.824e-6
-0.342, -1.820e-6
-0.340, -1.817e-6
-0.338, -1.814e-6
-0.336, -1.812e-6
-0.334, -1.811e-6
-0.332, -1.810e-6
-0.330, -1.810e-6
-0.328, -1.810e-6
-0.326, -1.811e-6
-0.324, -1.813e-6
-0.322, -1.816e-6
-0.320, -1.820e-6
-0.318, -1.824e-6
-0.316, -1.829e-6
-0.314, -1.835e-6
-0.312, -1.841e-6
-0.310, -1.849e-6
-0.308, -1.856e-6
-0.306, -1.863e-6
-0.304, -1.872e-6
-0.302, -1.880e-6
-0.300, -1.889e-6
-0.298, -1.897e-6
-0.296, -1.906e-6
-0.294, -1.915e-6
-0.292, -1.923e-6
-0.290, -1.931e-6
-0.288, -1.939e-6
-0.286, -1.946e-6
-0.284, -1.952e-6
-0.282, -1.958e-6
-0.280, -1.963e-6
-0.278, -1.967e-6
-0.276, -1.970e-6
-0.274, -1.973e-6
-0.272, -1.975e-6
-0.270, -1.976e-6
-0.268, -1.977e-6
-0.266, -1.976e-6
-0.264, -1.975e-6
-0.262, -1.974e-6
-0.260, -1.972e-6
-0.258, -1.969e-6
-0.256, -1.966e-6
-0.254, -1.962e-6
-0.252, -1.959e-6
-0.250, -1.954e-6
-0.248, -1.951e-6
-0.246, -1.947e-6
-0.244, -1.942e-6
-0.242, -1.938e-6
-0.240, -1.933e-6
-0.238, -1.929e-6
-0.236, -1.925e-6
-0.234, -1.920e-6
-0.232, -1.916e-6
-0.230, -1.913e-6
-0.228, -1.909e-6
-0.226, -1.905e-6
-0.224, -1.902e-6
-0.222, -1.899e-6
-0.220, -1.896e-6
-0.218, -1.893e-6
-0.216, -1.891e-6
-0.214, -1.888e-6
-0.212, -1.886e-6
-0.210, -1.884e-6
-0.208, -1.883e-6
-0.206, -1.880e-6
-0.204, -1.879e-6
-0.202, -1.877e-6
-0.200, -1.876e-6
-0.198, -1.875e-6
-0.196, -1.873e-6
-0.194, -1.872e-6
-0.192, -1.872e-6
-0.190, -1.871e-6
-0.188, -1.870e-6
-0.186, -1.870e-6
-0.184, -1.869e-6
-0.182, -1.869e-6
-0.180, -1.868e-6
-0.178, -1.868e-6
-0.176, -1.868e-6
-0.174, -1.868e-6
-0.172, -1.867e-6
-0.170, -1.867e-6
-0.168, -1.868e-6
-0.166, -1.868e-6
-0.164, -1.869e-6
-0.162, -1.868e-6
-0.160, -1.869e-6
-0.158, -1.869e-6
-0.156, -1.869e-6
-0.154, -1.869e-6
-0.152, -1.870e-6
-0.150, -1.870e-6
-0.148, -1.870e-6
-0.146, -1.871e-6
-0.144, -1.871e-6
-0.142, -1.871e-6
-0.140, -1.872e-6
-0.138, -1.871e-6
-0.136, -1.871e-6
-0.134, -1.871e-6
-0.132, -1.871e-6
-0.130, -1.870e-6
-0.128, -1.870e-6
-0.126, -1.870e-6
-0.124, -1.870e-6
-0.122, -1.869e-6
-0.120, -1.868e-6
-0.118, -1.868e-6
-0.116, -1.867e-6
-0.114, -1.866e-6
-0.112, -1.865e-6
-0.110, -1.864e-6
-0.108, -1.863e-6
-0.106, -1.863e-6
-0.104, -1.862e-6
-0.102, -1.860e-6
-0.100, -1.860e-6
-0.098, -1.858e-6
-0.096, -1.857e-6
-0.094, -1.856e-6
-0.092, -1.855e-6
-0.090, -1.853e-6
-0.088, -1.852e-6
-0.086, -1.851e-6
-0.084, -1.850e-6
-0.082, -1.848e-6
-0.080, -1.847e-6
-0.078, -1.846e-6
-0.076, -1.845e-6
-0.074, -1.843e-6
-0.072, -1.842e-6
-0.070, -1.841e-6
-0.068, -1.839e-6
-0.066, -1.837e-6
-0.064, -1.837e-6
-0.062, -1.835e-6
-0.060, -1.834e-6
-0.058, -1.832e-6
-0.056, -1.831e-6
-0.054, -1.830e-6
-0.052, -1.828e-6
-0.050, -1.828e-6
-0.048, -1.827e-6
-0.046, -1.825e-6
-0.044, -1.824e-6
-0.042, -1.822e-6
-0.040, -1.821e-6
-0.038, -1.820e-6
-0.036, -1.819e-6
-0.034, -1.818e-6
-0.032, -1.817e-6
-0.030, -1.816e-6
-0.028, -1.815e-6
-0.026, -1.813e-6
-0.024, -1.812e-6
-0.022, -1.811e-6
-0.020, -1.810e-6
-0.018, -1.808e-6
-0.016, -1.808e-6
-0.014, -1.806e-6
-0.012, -1.806e-6
-0.010, -1.804e-6
-0.008, -1.803e-6
-0.006, -1.802e-6
-0.004, -1.801e-6
-0.002, -1.800e-6
0.000, -1.798e-6
