June 16, 2025   16:11:31
Differential Pulse Voltammetry
File: 250616_pprot382int_2007b_1um_ai1_s7_ericmm_gce_dpv.bin
Data Source:  Experiment
Instrument Model:  CHI1040C
Header: 
Note: 

Init E (V) = -0.5
Final E (V) = 0
Incr E (V) = 0.002
Amplitude (V) = 0.05
Pulse Width (sec) = 0.075
Sample Width (sec) = 0.0167
Pulse Period (sec) = 0.5
Quiet Time (sec) = 2
Sensitivity (A/V) = 1e-5

Results:

Channel 1:
Ep = -0.268V
ip = -1.474e-7A
Ap = -1.050e-8VA

Potential/V, Current/A

-0.498, -2.727e-6
-0.496, -2.685e-6
-0.494, -2.648e-6
-0.492, -2.615e-6
-0.490, -2.587e-6
-0.488, -2.562e-6
-0.486, -2.539e-6
-0.484, -2.518e-6
-0.482, -2.498e-6
-0.480, -2.480e-6
-0.478, -2.464e-6
-0.476, -2.447e-6
-0.474, -2.431e-6
-0.472, -2.417e-6
-0.470, -2.402e-6
-0.468, -2.388e-6
-0.466, -2.375e-6
-0.464, -2.362e-6
-0.462, -2.349e-6
-0.460, -2.337e-6
-0.458, -2.324e-6
-0.456, -2.313e-6
-0.454, -2.301e-6
-0.452, -2.290e-6
-0.450, -2.279e-6
-0.448, -2.269e-6
-0.446, -2.257e-6
-0.444, -2.247e-6
-0.442, -2.236e-6
-0.440, -2.226e-6
-0.438, -2.217e-6
-0.436, -2.207e-6
-0.434, -2.197e-6
-0.432, -2.188e-6
-0.430, -2.178e-6
-0.428, -2.169e-6
-0.426, -2.159e-6
-0.424, -2.151e-6
-0.422, -2.143e-6
-0.420, -2.134e-6
-0.418, -2.125e-6
-0.416, -2.116e-6
-0.414, -2.108e-6
-0.412, -2.099e-6
-0.410, -2.091e-6
-0.408, -2.083e-6
-0.406, -2.075e-6
-0.404, -2.067e-6
-0.402, -2.059e-6
-0.400, -2.051e-6
-0.398, -2.043e-6
-0.396, -2.036e-6
-0.394, -2.028e-6
-0.392, -2.021e-6
-0.390, -2.014e-6
-0.388, -2.007e-6
-0.386, -1.999e-6
-0.384, -1.992e-6
-0.382, -1.985e-6
-0.380, -1.978e-6
-0.378, -1.970e-6
-0.376, -1.964e-6
-0.374, -1.957e-6
-0.372, -1.950e-6
-0.370, -1.943e-6
-0.368, -1.936e-6
-0.366, -1.929e-6
-0.364, -1.922e-6
-0.362, -1.915e-6
-0.360, -1.909e-6
-0.358, -1.903e-6
-0.356, -1.896e-6
-0.354, -1.890e-6
-0.352, -1.884e-6
-0.350, -1.879e-6
-0.348, -1.873e-6
-0.346, -1.868e-6
-0.344, -1.863e-6
-0.342, -1.859e-6
-0.340, -1.855e-6
-0.338, -1.851e-6
-0.336, -1.849e-6
-0.334, -1.847e-6
-0.332, -1.845e-6
-0.330, -1.843e-6
-0.328, -1.844e-6
-0.326, -1.844e-6
-0.324, -1.845e-6
-0.322, -1.847e-6
-0.320, -1.851e-6
-0.318, -1.854e-6
-0.316, -1.859e-6
-0.314, -1.864e-6
-0.312, -1.870e-6
-0.310, -1.877e-6
-0.308, -1.884e-6
-0.306, -1.892e-6
-0.304, -1.900e-6
-0.302, -1.909e-6
-0.300, -1.917e-6
-0.298, -1.926e-6
-0.296, -1.934e-6
-0.294, -1.943e-6
-0.292, -1.952e-6
-0.290, -1.959e-6
-0.288, -1.967e-6
-0.286, -1.974e-6
-0.284, -1.980e-6
-0.282, -1.985e-6
-0.280, -1.991e-6
-0.278, -1.995e-6
-0.276, -1.998e-6
-0.274, -2.001e-6
-0.272, -2.003e-6
-0.270, -2.004e-6
-0.268, -2.005e-6
-0.266, -2.003e-6
-0.264, -2.003e-6
-0.262, -2.001e-6
-0.260, -1.998e-6
-0.258, -1.996e-6
-0.256, -1.993e-6
-0.254, -1.989e-6
-0.252, -1.985e-6
-0.250, -1.980e-6
-0.248, -1.976e-6
-0.246, -1.972e-6
-0.244, -1.967e-6
-0.242, -1.962e-6
-0.240, -1.958e-6
-0.238, -1.953e-6
-0.236, -1.949e-6
-0.234, -1.944e-6
-0.232, -1.940e-6
-0.230, -1.936e-6
-0.228, -1.932e-6
-0.226, -1.928e-6
-0.224, -1.925e-6
-0.222, -1.922e-6
-0.220, -1.918e-6
-0.218, -1.915e-6
-0.216, -1.912e-6
-0.214, -1.910e-6
-0.212, -1.907e-6
-0.210, -1.905e-6
-0.208, -1.902e-6
-0.206, -1.901e-6
-0.204, -1.899e-6
-0.202, -1.897e-6
-0.200, -1.895e-6
-0.198, -1.894e-6
-0.196, -1.892e-6
-0.194, -1.891e-6
-0.192, -1.890e-6
-0.190, -1.889e-6
-0.188, -1.888e-6
-0.186, -1.887e-6
-0.184, -1.886e-6
-0.182, -1.886e-6
-0.180, -1.886e-6
-0.178, -1.885e-6
-0.176, -1.884e-6
-0.174, -1.884e-6
-0.172, -1.884e-6
-0.170, -1.883e-6
-0.168, -1.883e-6
-0.166, -1.883e-6
-0.164, -1.883e-6
-0.162, -1.882e-6
-0.160, -1.883e-6
-0.158, -1.883e-6
-0.156, -1.883e-6
-0.154, -1.882e-6
-0.152, -1.883e-6
-0.150, -1.883e-6
-0.148, -1.883e-6
-0.146, -1.883e-6
-0.144, -1.883e-6
-0.142, -1.883e-6
-0.140, -1.883e-6
-0.138, -1.882e-6
-0.136, -1.882e-6
-0.134, -1.882e-6
-0.132, -1.882e-6
-0.130, -1.881e-6
-0.128, -1.881e-6
-0.126, -1.881e-6
-0.124, -1.880e-6
-0.122, -1.879e-6
-0.120, -1.878e-6
-0.118, -1.877e-6
-0.116, -1.877e-6
-0.114, -1.875e-6
-0.112, -1.874e-6
-0.110, -1.873e-6
-0.108, -1.872e-6
-0.106, -1.870e-6
-0.104, -1.869e-6
-0.102, -1.868e-6
-0.100, -1.866e-6
-0.098, -1.864e-6
-0.096, -1.863e-6
-0.094, -1.862e-6
-0.092, -1.861e-6
-0.090, -1.859e-6
-0.088, -1.858e-6
-0.086, -1.856e-6
-0.084, -1.855e-6
-0.082, -1.853e-6
-0.080, -1.852e-6
-0.078, -1.851e-6
-0.076, -1.849e-6
-0.074, -1.847e-6
-0.072, -1.846e-6
-0.070, -1.845e-6
-0.068, -1.844e-6
-0.066, -1.842e-6
-0.064, -1.841e-6
-0.062, -1.839e-6
-0.060, -1.838e-6
-0.058, -1.836e-6
-0.056, -1.835e-6
-0.054, -1.834e-6
-0.052, -1.833e-6
-0.050, -1.832e-6
-0.048, -1.831e-6
-0.046, -1.830e-6
-0.044, -1.828e-6
-0.042, -1.827e-6
-0.040, -1.825e-6
-0.038, -1.825e-6
-0.036, -1.823e-6
-0.034, -1.822e-6
-0.032, -1.821e-6
-0.030, -1.820e-6
-0.028, -1.819e-6
-0.026, -1.817e-6
-0.024, -1.817e-6
-0.022, -1.815e-6
-0.020, -1.814e-6
-0.018, -1.813e-6
-0.016, -1.812e-6
-0.014, -1.811e-6
-0.012, -1.811e-6
-0.010, -1.809e-6
-0.008, -1.808e-6
-0.006, -1.807e-6
-0.004, -1.806e-6
-0.002, -1.804e-6
0.000, -1.803e-6
