June 16, 2025   15:51:29
Differential Pulse Voltammetry
File: 250616_pprot382int_2007b_0um_ai1_s3_ericmm_gce_dpv.bin
Data Source:  Experiment
Instrument Model:  CHI1040C
Header: 
Note: 

Init E (V) = -0.5
Final E (V) = 0
Incr E (V) = 0.002
Amplitude (V) = 0.05
Pulse Width (sec) = 0.075
Sample Width (sec) = 0.0167
Pulse Period (sec) = 0.5
Quiet Time (sec) = 2
Sensitivity (A/V) = 1e-5

Results:

Channel 1:
Ep = -0.268V
ip = -1.422e-7A
Ap = -1.153e-8VA

Potential/V, Current/A

-0.498, -2.583e-6
-0.496, -2.537e-6
-0.494, -2.496e-6
-0.492, -2.460e-6
-0.490, -2.427e-6
-0.488, -2.398e-6
-0.486, -2.370e-6
-0.484, -2.345e-6
-0.482, -2.321e-6
-0.480, -2.298e-6
-0.478, -2.277e-6
-0.476, -2.257e-6
-0.474, -2.237e-6
-0.472, -2.219e-6
-0.470, -2.200e-6
-0.468, -2.182e-6
-0.466, -2.164e-6
-0.464, -2.148e-6
-0.462, -2.131e-6
-0.460, -2.114e-6
-0.458, -2.098e-6
-0.456, -2.083e-6
-0.454, -2.067e-6
-0.452, -2.052e-6
-0.450, -2.037e-6
-0.448, -2.023e-6
-0.446, -2.009e-6
-0.444, -1.995e-6
-0.442, -1.981e-6
-0.440, -1.968e-6
-0.438, -1.955e-6
-0.436, -1.941e-6
-0.434, -1.927e-6
-0.432, -1.915e-6
-0.430, -1.903e-6
-0.428, -1.890e-6
-0.426, -1.878e-6
-0.424, -1.866e-6
-0.422, -1.855e-6
-0.420, -1.843e-6
-0.418, -1.832e-6
-0.416, -1.822e-6
-0.414, -1.811e-6
-0.412, -1.800e-6
-0.410, -1.789e-6
-0.408, -1.779e-6
-0.406, -1.768e-6
-0.404, -1.758e-6
-0.402, -1.747e-6
-0.400, -1.737e-6
-0.398, -1.727e-6
-0.396, -1.718e-6
-0.394, -1.708e-6
-0.392, -1.698e-6
-0.390, -1.689e-6
-0.388, -1.680e-6
-0.386, -1.670e-6
-0.384, -1.661e-6
-0.382, -1.652e-6
-0.380, -1.643e-6
-0.378, -1.634e-6
-0.376, -1.625e-6
-0.374, -1.616e-6
-0.372, -1.607e-6
-0.370, -1.599e-6
-0.368, -1.591e-6
-0.366, -1.583e-6
-0.364, -1.574e-6
-0.362, -1.566e-6
-0.360, -1.558e-6
-0.358, -1.551e-6
-0.356, -1.544e-6
-0.354, -1.536e-6
-0.352, -1.530e-6
-0.350, -1.523e-6
-0.348, -1.517e-6
-0.346, -1.511e-6
-0.344, -1.506e-6
-0.342, -1.502e-6
-0.340, -1.497e-6
-0.338, -1.494e-6
-0.336, -1.491e-6
-0.334, -1.489e-6
-0.332, -1.487e-6
-0.330, -1.486e-6
-0.328, -1.486e-6
-0.326, -1.487e-6
-0.324, -1.489e-6
-0.322, -1.491e-6
-0.320, -1.495e-6
-0.318, -1.499e-6
-0.316, -1.503e-6
-0.314, -1.508e-6
-0.312, -1.514e-6
-0.310, -1.521e-6
-0.308, -1.528e-6
-0.306, -1.535e-6
-0.304, -1.543e-6
-0.302, -1.551e-6
-0.300, -1.558e-6
-0.298, -1.566e-6
-0.296, -1.574e-6
-0.294, -1.582e-6
-0.292, -1.590e-6
-0.290, -1.595e-6
-0.288, -1.603e-6
-0.286, -1.609e-6
-0.284, -1.614e-6
-0.282, -1.619e-6
-0.280, -1.623e-6
-0.278, -1.627e-6
-0.276, -1.629e-6
-0.274, -1.631e-6
-0.272, -1.633e-6
-0.270, -1.633e-6
-0.268, -1.633e-6
-0.266, -1.632e-6
-0.264, -1.631e-6
-0.262, -1.629e-6
-0.260, -1.627e-6
-0.258, -1.624e-6
-0.256, -1.621e-6
-0.254, -1.617e-6
-0.252, -1.613e-6
-0.250, -1.609e-6
-0.248, -1.605e-6
-0.246, -1.600e-6
-0.244, -1.596e-6
-0.242, -1.591e-6
-0.240, -1.587e-6
-0.238, -1.582e-6
-0.236, -1.577e-6
-0.234, -1.573e-6
-0.232, -1.568e-6
-0.230, -1.565e-6
-0.228, -1.561e-6
-0.226, -1.557e-6
-0.224, -1.554e-6
-0.222, -1.551e-6
-0.220, -1.547e-6
-0.218, -1.544e-6
-0.216, -1.541e-6
-0.214, -1.538e-6
-0.212, -1.536e-6
-0.210, -1.534e-6
-0.208, -1.532e-6
-0.206, -1.530e-6
-0.204, -1.528e-6
-0.202, -1.526e-6
-0.200, -1.524e-6
-0.198, -1.523e-6
-0.196, -1.522e-6
-0.194, -1.520e-6
-0.192, -1.520e-6
-0.190, -1.518e-6
-0.188, -1.517e-6
-0.186, -1.516e-6
-0.184, -1.516e-6
-0.182, -1.515e-6
-0.180, -1.514e-6
-0.178, -1.513e-6
-0.176, -1.513e-6
-0.174, -1.512e-6
-0.172, -1.512e-6
-0.170, -1.512e-6
-0.168, -1.511e-6
-0.166, -1.511e-6
-0.164, -1.511e-6
-0.162, -1.510e-6
-0.160, -1.510e-6
-0.158, -1.510e-6
-0.156, -1.510e-6
-0.154, -1.510e-6
-0.152, -1.510e-6
-0.150, -1.510e-6
-0.148, -1.510e-6
-0.146, -1.510e-6
-0.144, -1.510e-6
-0.142, -1.510e-6
-0.140, -1.510e-6
-0.138, -1.509e-6
-0.136, -1.509e-6
-0.134, -1.509e-6
-0.132, -1.509e-6
-0.130, -1.509e-6
-0.128, -1.509e-6
-0.126, -1.510e-6
-0.124, -1.510e-6
-0.122, -1.509e-6
-0.120, -1.509e-6
-0.118, -1.509e-6
-0.116, -1.509e-6
-0.114, -1.508e-6
-0.112, -1.509e-6
-0.110, -1.508e-6
-0.108, -1.508e-6
-0.106, -1.507e-6
-0.104, -1.508e-6
-0.102, -1.508e-6
-0.100, -1.507e-6
-0.098, -1.507e-6
-0.096, -1.507e-6
-0.094, -1.507e-6
-0.092, -1.507e-6
-0.090, -1.507e-6
-0.088, -1.507e-6
-0.086, -1.507e-6
-0.084, -1.507e-6
-0.082, -1.507e-6
-0.080, -1.507e-6
-0.078, -1.507e-6
-0.076, -1.507e-6
-0.074, -1.506e-6
-0.072, -1.507e-6
-0.070, -1.506e-6
-0.068, -1.506e-6
-0.066, -1.506e-6
-0.064, -1.506e-6
-0.062, -1.506e-6
-0.060, -1.505e-6
-0.058, -1.505e-6
-0.056, -1.505e-6
-0.054, -1.505e-6
-0.052, -1.505e-6
-0.050, -1.505e-6
-0.048, -1.505e-6
-0.046, -1.505e-6
-0.044, -1.505e-6
-0.042, -1.505e-6
-0.040, -1.506e-6
-0.038, -1.506e-6
-0.036, -1.506e-6
-0.034, -1.506e-6
-0.032, -1.506e-6
-0.030, -1.506e-6
-0.028, -1.506e-6
-0.026, -1.506e-6
-0.024, -1.506e-6
-0.022, -1.507e-6
-0.020, -1.507e-6
-0.018, -1.506e-6
-0.016, -1.507e-6
-0.014, -1.507e-6
-0.012, -1.507e-6
-0.010, -1.507e-6
-0.008, -1.507e-6
-0.006, -1.507e-6
-0.004, -1.507e-6
-0.002, -1.507e-6
0.000, -1.507e-6
