June 16, 2025   15:37:44
Differential Pulse Voltammetry
File: 250616_pprot382int_2007b_0um_ai1_s1_ericmm_gce_dpv.bin
Data Source:  Experiment
Instrument Model:  CHI1040C
Header: 
Note: 

Init E (V) = -0.5
Final E (V) = 0
Incr E (V) = 0.002
Amplitude (V) = 0.05
Pulse Width (sec) = 0.075
Sample Width (sec) = 0.0167
Pulse Period (sec) = 0.5
Quiet Time (sec) = 2
Sensitivity (A/V) = 1e-5

Results:

Channel 1:
Ep = -0.134V
ip = -2.460e-8A
Ap = -2.936e-9VA

Potential/V, Current/A

-0.498, -2.325e-6
-0.496, -2.283e-6
-0.494, -2.246e-6
-0.492, -2.215e-6
-0.490, -2.188e-6
-0.488, -2.164e-6
-0.486, -2.140e-6
-0.484, -2.120e-6
-0.482, -2.101e-6
-0.480, -2.081e-6
-0.478, -2.066e-6
-0.476, -2.051e-6
-0.474, -2.036e-6
-0.472, -2.022e-6
-0.470, -2.009e-6
-0.468, -1.996e-6
-0.466, -1.984e-6
-0.464, -1.972e-6
-0.462, -1.960e-6
-0.460, -1.949e-6
-0.458, -1.938e-6
-0.456, -1.928e-6
-0.454, -1.915e-6
-0.452, -1.905e-6
-0.450, -1.895e-6
-0.448, -1.885e-6
-0.446, -1.875e-6
-0.444, -1.866e-6
-0.442, -1.856e-6
-0.440, -1.848e-6
-0.438, -1.838e-6
-0.436, -1.830e-6
-0.434, -1.821e-6
-0.432, -1.812e-6
-0.430, -1.804e-6
-0.428, -1.795e-6
-0.426, -1.786e-6
-0.424, -1.778e-6
-0.422, -1.771e-6
-0.420, -1.763e-6
-0.418, -1.754e-6
-0.416, -1.747e-6
-0.414, -1.740e-6
-0.412, -1.733e-6
-0.410, -1.725e-6
-0.408, -1.717e-6
-0.406, -1.711e-6
-0.404, -1.703e-6
-0.402, -1.696e-6
-0.400, -1.689e-6
-0.398, -1.682e-6
-0.396, -1.676e-6
-0.394, -1.669e-6
-0.392, -1.663e-6
-0.390, -1.656e-6
-0.388, -1.650e-6
-0.386, -1.644e-6
-0.384, -1.637e-6
-0.382, -1.630e-6
-0.380, -1.624e-6
-0.378, -1.618e-6
-0.376, -1.612e-6
-0.374, -1.606e-6
-0.372, -1.601e-6
-0.370, -1.594e-6
-0.368, -1.588e-6
-0.366, -1.583e-6
-0.364, -1.577e-6
-0.362, -1.571e-6
-0.360, -1.566e-6
-0.358, -1.561e-6
-0.356, -1.556e-6
-0.354, -1.550e-6
-0.352, -1.546e-6
-0.350, -1.541e-6
-0.348, -1.537e-6
-0.346, -1.533e-6
-0.344, -1.529e-6
-0.342, -1.526e-6
-0.340, -1.523e-6
-0.338, -1.521e-6
-0.336, -1.519e-6
-0.334, -1.518e-6
-0.332, -1.517e-6
-0.330, -1.517e-6
-0.328, -1.518e-6
-0.326, -1.519e-6
-0.324, -1.521e-6
-0.322, -1.523e-6
-0.320, -1.526e-6
-0.318, -1.531e-6
-0.316, -1.536e-6
-0.314, -1.540e-6
-0.312, -1.546e-6
-0.310, -1.552e-6
-0.308, -1.559e-6
-0.306, -1.565e-6
-0.304, -1.572e-6
-0.302, -1.580e-6
-0.300, -1.587e-6
-0.298, -1.594e-6
-0.296, -1.602e-6
-0.294, -1.609e-6
-0.292, -1.616e-6
-0.290, -1.622e-6
-0.288, -1.629e-6
-0.286, -1.635e-6
-0.284, -1.640e-6
-0.282, -1.644e-6
-0.280, -1.649e-6
-0.278, -1.652e-6
-0.276, -1.655e-6
-0.274, -1.656e-6
-0.272, -1.658e-6
-0.270, -1.659e-6
-0.268, -1.659e-6
-0.266, -1.658e-6
-0.264, -1.658e-6
-0.262, -1.656e-6
-0.260, -1.655e-6
-0.258, -1.652e-6
-0.256, -1.650e-6
-0.254, -1.647e-6
-0.252, -1.644e-6
-0.250, -1.640e-6
-0.248, -1.637e-6
-0.246, -1.634e-6
-0.244, -1.630e-6
-0.242, -1.627e-6
-0.240, -1.624e-6
-0.238, -1.620e-6
-0.236, -1.616e-6
-0.234, -1.613e-6
-0.232, -1.610e-6
-0.230, -1.607e-6
-0.228, -1.604e-6
-0.226, -1.601e-6
-0.224, -1.599e-6
-0.222, -1.596e-6
-0.220, -1.593e-6
-0.218, -1.591e-6
-0.216, -1.589e-6
-0.214, -1.587e-6
-0.212, -1.585e-6
-0.210, -1.584e-6
-0.208, -1.582e-6
-0.206, -1.581e-6
-0.204, -1.580e-6
-0.202, -1.578e-6
-0.200, -1.577e-6
-0.198, -1.576e-6
-0.196, -1.575e-6
-0.194, -1.575e-6
-0.192, -1.574e-6
-0.190, -1.574e-6
-0.188, -1.574e-6
-0.186, -1.573e-6
-0.184, -1.573e-6
-0.182, -1.573e-6
-0.180, -1.572e-6
-0.178, -1.572e-6
-0.176, -1.572e-6
-0.174, -1.572e-6
-0.172, -1.572e-6
-0.170, -1.572e-6
-0.168, -1.572e-6
-0.166, -1.573e-6
-0.164, -1.574e-6
-0.162, -1.573e-6
-0.160, -1.574e-6
-0.158, -1.574e-6
-0.156, -1.574e-6
-0.154, -1.574e-6
-0.152, -1.575e-6
-0.150, -1.576e-6
-0.148, -1.575e-6
-0.146, -1.575e-6
-0.144, -1.576e-6
-0.142, -1.576e-6
-0.140, -1.576e-6
-0.138, -1.575e-6
-0.136, -1.576e-6
-0.134, -1.576e-6
-0.132, -1.576e-6
-0.130, -1.575e-6
-0.128, -1.575e-6
-0.126, -1.575e-6
-0.124, -1.574e-6
-0.122, -1.573e-6
-0.120, -1.573e-6
-0.118, -1.572e-6
-0.116, -1.572e-6
-0.114, -1.571e-6
-0.112, -1.570e-6
-0.110, -1.570e-6
-0.108, -1.569e-6
-0.106, -1.567e-6
-0.104, -1.567e-6
-0.102, -1.566e-6
-0.100, -1.565e-6
-0.098, -1.563e-6
-0.096, -1.563e-6
-0.094, -1.562e-6
-0.092, -1.560e-6
-0.090, -1.559e-6
-0.088, -1.558e-6
-0.086, -1.557e-6
-0.084, -1.555e-6
-0.082, -1.554e-6
-0.080, -1.553e-6
-0.078, -1.552e-6
-0.076, -1.550e-6
-0.074, -1.548e-6
-0.072, -1.547e-6
-0.070, -1.546e-6
-0.068, -1.545e-6
-0.066, -1.543e-6
-0.064, -1.542e-6
-0.062, -1.541e-6
-0.060, -1.539e-6
-0.058, -1.537e-6
-0.056, -1.536e-6
-0.054, -1.535e-6
-0.052, -1.533e-6
-0.050, -1.532e-6
-0.048, -1.531e-6
-0.046, -1.529e-6
-0.044, -1.528e-6
-0.042, -1.526e-6
-0.040, -1.525e-6
-0.038, -1.523e-6
-0.036, -1.522e-6
-0.034, -1.520e-6
-0.032, -1.519e-6
-0.030, -1.517e-6
-0.028, -1.516e-6
-0.026, -1.514e-6
-0.024, -1.513e-6
-0.022, -1.512e-6
-0.020, -1.510e-6
-0.018, -1.509e-6
-0.016, -1.508e-6
-0.014, -1.507e-6
-0.012, -1.506e-6
-0.010, -1.504e-6
-0.008, -1.503e-6
-0.006, -1.502e-6
-0.004, -1.501e-6
-0.002, -1.499e-6
0.000, -1.498e-6
