June 16, 2025   15:46:14
Differential Pulse Voltammetry
File: 250616_pprot382int_2007b_0um_ai1_s2_ericmm_gce_dpv.bin
Data Source:  Experiment
Instrument Model:  CHI1040C
Header: 
Note: 

Init E (V) = -0.5
Final E (V) = 0
Incr E (V) = 0.002
Amplitude (V) = 0.05
Pulse Width (sec) = 0.075
Sample Width (sec) = 0.0167
Pulse Period (sec) = 0.5
Quiet Time (sec) = 2
Sensitivity (A/V) = 1e-5

Results:

Channel 1:

Potential/V, Current/A

-0.498, -2.216e-6
-0.496, -2.182e-6
-0.494, -2.153e-6
-0.492, -2.128e-6
-0.490, -2.104e-6
-0.488, -2.083e-6
-0.486, -2.065e-6
-0.484, -2.047e-6
-0.482, -2.031e-6
-0.480, -2.016e-6
-0.478, -2.001e-6
-0.476, -1.988e-6
-0.474, -1.973e-6
-0.472, -1.961e-6
-0.470, -1.949e-6
-0.468, -1.936e-6
-0.466, -1.924e-6
-0.464, -1.912e-6
-0.462, -1.901e-6
-0.460, -1.890e-6
-0.458, -1.878e-6
-0.456, -1.867e-6
-0.454, -1.857e-6
-0.452, -1.847e-6
-0.450, -1.836e-6
-0.448, -1.827e-6
-0.446, -1.817e-6
-0.444, -1.807e-6
-0.442, -1.798e-6
-0.440, -1.789e-6
-0.438, -1.780e-6
-0.436, -1.771e-6
-0.434, -1.762e-6
-0.432, -1.753e-6
-0.430, -1.745e-6
-0.428, -1.736e-6
-0.426, -1.728e-6
-0.424, -1.720e-6
-0.422, -1.712e-6
-0.420, -1.704e-6
-0.418, -1.696e-6
-0.416, -1.689e-6
-0.414, -1.682e-6
-0.412, -1.674e-6
-0.410, -1.666e-6
-0.408, -1.659e-6
-0.406, -1.652e-6
-0.404, -1.645e-6
-0.402, -1.637e-6
-0.400, -1.631e-6
-0.398, -1.624e-6
-0.396, -1.617e-6
-0.394, -1.610e-6
-0.392, -1.603e-6
-0.390, -1.596e-6
-0.388, -1.590e-6
-0.386, -1.583e-6
-0.384, -1.577e-6
-0.382, -1.570e-6
-0.380, -1.564e-6
-0.378, -1.557e-6
-0.376, -1.551e-6
-0.374, -1.545e-6
-0.372, -1.539e-6
-0.370, -1.533e-6
-0.368, -1.527e-6
-0.366, -1.522e-6
-0.364, -1.516e-6
-0.362, -1.510e-6
-0.360, -1.505e-6
-0.358, -1.500e-6
-0.356, -1.495e-6
-0.354, -1.490e-6
-0.352, -1.486e-6
-0.350, -1.482e-6
-0.348, -1.478e-6
-0.346, -1.474e-6
-0.344, -1.471e-6
-0.342, -1.469e-6
-0.340, -1.467e-6
-0.338, -1.465e-6
-0.336, -1.464e-6
-0.334, -1.463e-6
-0.332, -1.464e-6
-0.330, -1.464e-6
-0.328, -1.466e-6
-0.326, -1.468e-6
-0.324, -1.470e-6
-0.322, -1.473e-6
-0.320, -1.477e-6
-0.318, -1.481e-6
-0.316, -1.486e-6
-0.314, -1.491e-6
-0.312, -1.497e-6
-0.310, -1.503e-6
-0.308, -1.509e-6
-0.306, -1.515e-6
-0.304, -1.521e-6
-0.302, -1.527e-6
-0.300, -1.534e-6
-0.298, -1.540e-6
-0.296, -1.546e-6
-0.294, -1.552e-6
-0.292, -1.558e-6
-0.290, -1.562e-6
-0.288, -1.567e-6
-0.286, -1.571e-6
-0.284, -1.575e-6
-0.282, -1.578e-6
-0.280, -1.580e-6
-0.278, -1.583e-6
-0.276, -1.584e-6
-0.274, -1.585e-6
-0.272, -1.585e-6
-0.270, -1.584e-6
-0.268, -1.584e-6
-0.266, -1.582e-6
-0.264, -1.581e-6
-0.262, -1.578e-6
-0.260, -1.576e-6
-0.258, -1.573e-6
-0.256, -1.570e-6
-0.254, -1.567e-6
-0.252, -1.564e-6
-0.250, -1.560e-6
-0.248, -1.557e-6
-0.246, -1.553e-6
-0.244, -1.549e-6
-0.242, -1.545e-6
-0.240, -1.542e-6
-0.238, -1.539e-6
-0.236, -1.535e-6
-0.234, -1.531e-6
-0.232, -1.529e-6
-0.230, -1.525e-6
-0.228, -1.522e-6
-0.226, -1.519e-6
-0.224, -1.516e-6
-0.222, -1.514e-6
-0.220, -1.512e-6
-0.218, -1.509e-6
-0.216, -1.507e-6
-0.214, -1.505e-6
-0.212, -1.503e-6
-0.210, -1.501e-6
-0.208, -1.500e-6
-0.206, -1.498e-6
-0.204, -1.497e-6
-0.202, -1.496e-6
-0.200, -1.494e-6
-0.198, -1.494e-6
-0.196, -1.492e-6
-0.194, -1.491e-6
-0.192, -1.491e-6
-0.190, -1.490e-6
-0.188, -1.489e-6
-0.186, -1.489e-6
-0.184, -1.488e-6
-0.182, -1.488e-6
-0.180, -1.488e-6
-0.178, -1.487e-6
-0.176, -1.487e-6
-0.174, -1.487e-6
-0.172, -1.487e-6
-0.170, -1.487e-6
-0.168, -1.487e-6
-0.166, -1.487e-6
-0.164, -1.486e-6
-0.162, -1.486e-6
-0.160, -1.487e-6
-0.158, -1.487e-6
-0.156, -1.486e-6
-0.154, -1.486e-6
-0.152, -1.487e-6
-0.150, -1.487e-6
-0.148, -1.487e-6
-0.146, -1.487e-6
-0.144, -1.486e-6
-0.142, -1.486e-6
-0.140, -1.486e-6
-0.138, -1.485e-6
-0.136, -1.485e-6
-0.134, -1.484e-6
-0.132, -1.483e-6
-0.130, -1.482e-6
-0.128, -1.482e-6
-0.126, -1.481e-6
-0.124, -1.479e-6
-0.122, -1.478e-6
-0.120, -1.477e-6
-0.118, -1.476e-6
-0.116, -1.474e-6
-0.114, -1.472e-6
-0.112, -1.471e-6
-0.110, -1.470e-6
-0.108, -1.468e-6
-0.106, -1.466e-6
-0.104, -1.465e-6
-0.102, -1.463e-6
-0.100, -1.462e-6
-0.098, -1.459e-6
-0.096, -1.458e-6
-0.094, -1.456e-6
-0.092, -1.454e-6
-0.090, -1.453e-6
-0.088, -1.451e-6
-0.086, -1.449e-6
-0.084, -1.447e-6
-0.082, -1.445e-6
-0.080, -1.444e-6
-0.078, -1.443e-6
-0.076, -1.441e-6
-0.074, -1.439e-6
-0.072, -1.438e-6
-0.070, -1.436e-6
-0.068, -1.434e-6
-0.066, -1.432e-6
-0.064, -1.430e-6
-0.062, -1.429e-6
-0.060, -1.427e-6
-0.058, -1.425e-6
-0.056, -1.423e-6
-0.054, -1.422e-6
-0.052, -1.419e-6
-0.050, -1.418e-6
-0.048, -1.417e-6
-0.046, -1.415e-6
-0.044, -1.413e-6
-0.042, -1.411e-6
-0.040, -1.410e-6
-0.038, -1.408e-6
-0.036, -1.406e-6
-0.034, -1.404e-6
-0.032, -1.403e-6
-0.030, -1.401e-6
-0.028, -1.400e-6
-0.026, -1.398e-6
-0.024, -1.397e-6
-0.022, -1.396e-6
-0.020, -1.394e-6
-0.018, -1.392e-6
-0.016, -1.391e-6
-0.014, -1.390e-6
-0.012, -1.389e-6
-0.010, -1.387e-6
-0.008, -1.386e-6
-0.006, -1.385e-6
-0.004, -1.383e-6
-0.002, -1.382e-6
0.000, -1.380e-6
