June 16, 2025   16:20:52
Differential Pulse Voltammetry
File: 250616_pprot382int_2007b_1um_ai1_s9_ericmm_gce_dpv.bin
Data Source:  Experiment
Instrument Model:  CHI1040C
Header: 
Note: 

Init E (V) = -0.5
Final E (V) = 0
Incr E (V) = 0.002
Amplitude (V) = 0.05
Pulse Width (sec) = 0.075
Sample Width (sec) = 0.0167
Pulse Period (sec) = 0.5
Quiet Time (sec) = 2
Sensitivity (A/V) = 1e-5

Results:

Channel 1:
Ep = -0.274V
ip = -1.248e-7A
Ap = -8.474e-9VA

Potential/V, Current/A

-0.498, -2.263e-6
-0.496, -2.235e-6
-0.494, -2.211e-6
-0.492, -2.190e-6
-0.490, -2.170e-6
-0.488, -2.153e-6
-0.486, -2.137e-6
-0.484, -2.121e-6
-0.482, -2.107e-6
-0.480, -2.094e-6
-0.478, -2.081e-6
-0.476, -2.069e-6
-0.474, -2.057e-6
-0.472, -2.043e-6
-0.470, -2.030e-6
-0.468, -2.018e-6
-0.466, -2.006e-6
-0.464, -1.996e-6
-0.462, -1.985e-6
-0.460, -1.974e-6
-0.458, -1.962e-6
-0.456, -1.951e-6
-0.454, -1.941e-6
-0.452, -1.931e-6
-0.450, -1.919e-6
-0.448, -1.910e-6
-0.446, -1.900e-6
-0.444, -1.890e-6
-0.442, -1.880e-6
-0.440, -1.871e-6
-0.438, -1.862e-6
-0.436, -1.853e-6
-0.434, -1.844e-6
-0.432, -1.836e-6
-0.430, -1.827e-6
-0.428, -1.819e-6
-0.426, -1.809e-6
-0.424, -1.801e-6
-0.422, -1.792e-6
-0.420, -1.782e-6
-0.418, -1.772e-6
-0.416, -1.763e-6
-0.414, -1.754e-6
-0.412, -1.745e-6
-0.410, -1.736e-6
-0.408, -1.727e-6
-0.406, -1.718e-6
-0.404, -1.709e-6
-0.402, -1.700e-6
-0.400, -1.691e-6
-0.398, -1.683e-6
-0.396, -1.675e-6
-0.394, -1.667e-6
-0.392, -1.659e-6
-0.390, -1.651e-6
-0.388, -1.644e-6
-0.386, -1.636e-6
-0.384, -1.628e-6
-0.382, -1.621e-6
-0.380, -1.613e-6
-0.378, -1.605e-6
-0.376, -1.598e-6
-0.374, -1.590e-6
-0.372, -1.583e-6
-0.370, -1.575e-6
-0.368, -1.568e-6
-0.366, -1.561e-6
-0.364, -1.553e-6
-0.362, -1.546e-6
-0.360, -1.540e-6
-0.358, -1.533e-6
-0.356, -1.526e-6
-0.354, -1.519e-6
-0.352, -1.512e-6
-0.350, -1.506e-6
-0.348, -1.501e-6
-0.346, -1.495e-6
-0.344, -1.490e-6
-0.342, -1.486e-6
-0.340, -1.481e-6
-0.338, -1.477e-6
-0.336, -1.474e-6
-0.334, -1.471e-6
-0.332, -1.469e-6
-0.330, -1.467e-6
-0.328, -1.467e-6
-0.326, -1.468e-6
-0.324, -1.468e-6
-0.322, -1.470e-6
-0.320, -1.473e-6
-0.318, -1.476e-6
-0.316, -1.480e-6
-0.314, -1.482e-6
-0.312, -1.487e-6
-0.310, -1.493e-6
-0.308, -1.499e-6
-0.306, -1.505e-6
-0.304, -1.513e-6
-0.302, -1.519e-6
-0.300, -1.526e-6
-0.298, -1.534e-6
-0.296, -1.541e-6
-0.294, -1.548e-6
-0.292, -1.554e-6
-0.290, -1.561e-6
-0.288, -1.567e-6
-0.286, -1.573e-6
-0.284, -1.577e-6
-0.282, -1.582e-6
-0.280, -1.585e-6
-0.278, -1.589e-6
-0.276, -1.590e-6
-0.274, -1.591e-6
-0.272, -1.591e-6
-0.270, -1.591e-6
-0.268, -1.591e-6
-0.266, -1.588e-6
-0.264, -1.586e-6
-0.262, -1.583e-6
-0.260, -1.580e-6
-0.258, -1.577e-6
-0.256, -1.574e-6
-0.254, -1.570e-6
-0.252, -1.566e-6
-0.250, -1.561e-6
-0.248, -1.557e-6
-0.246, -1.553e-6
-0.244, -1.549e-6
-0.242, -1.545e-6
-0.240, -1.540e-6
-0.238, -1.536e-6
-0.236, -1.532e-6
-0.234, -1.527e-6
-0.232, -1.521e-6
-0.230, -1.517e-6
-0.228, -1.513e-6
-0.226, -1.510e-6
-0.224, -1.506e-6
-0.222, -1.501e-6
-0.220, -1.497e-6
-0.218, -1.494e-6
-0.216, -1.491e-6
-0.214, -1.489e-6
-0.212, -1.486e-6
-0.210, -1.483e-6
-0.208, -1.482e-6
-0.206, -1.479e-6
-0.204, -1.477e-6
-0.202, -1.474e-6
-0.200, -1.473e-6
-0.198, -1.471e-6
-0.196, -1.470e-6
-0.194, -1.468e-6
-0.192, -1.467e-6
-0.190, -1.466e-6
-0.188, -1.465e-6
-0.186, -1.464e-6
-0.184, -1.463e-6
-0.182, -1.462e-6
-0.180, -1.461e-6
-0.178, -1.461e-6
-0.176, -1.460e-6
-0.174, -1.459e-6
-0.172, -1.459e-6
-0.170, -1.458e-6
-0.168, -1.458e-6
-0.166, -1.458e-6
-0.164, -1.457e-6
-0.162, -1.456e-6
-0.160, -1.456e-6
-0.158, -1.456e-6
-0.156, -1.456e-6
-0.154, -1.456e-6
-0.152, -1.456e-6
-0.150, -1.456e-6
-0.148, -1.456e-6
-0.146, -1.455e-6
-0.144, -1.455e-6
-0.142, -1.455e-6
-0.140, -1.455e-6
-0.138, -1.455e-6
-0.136, -1.455e-6
-0.134, -1.455e-6
-0.132, -1.455e-6
-0.130, -1.455e-6
-0.128, -1.455e-6
-0.126, -1.455e-6
-0.124, -1.454e-6
-0.122, -1.454e-6
-0.120, -1.454e-6
-0.118, -1.453e-6
-0.116, -1.453e-6
-0.114, -1.453e-6
-0.112, -1.452e-6
-0.110, -1.452e-6
-0.108, -1.451e-6
-0.106, -1.451e-6
-0.104, -1.451e-6
-0.102, -1.450e-6
-0.100, -1.450e-6
-0.098, -1.449e-6
-0.096, -1.448e-6
-0.094, -1.448e-6
-0.092, -1.448e-6
-0.090, -1.447e-6
-0.088, -1.446e-6
-0.086, -1.446e-6
-0.084, -1.445e-6
-0.082, -1.444e-6
-0.080, -1.444e-6
-0.078, -1.443e-6
-0.076, -1.443e-6
-0.074, -1.442e-6
-0.072, -1.442e-6
-0.070, -1.441e-6
-0.068, -1.441e-6
-0.066, -1.440e-6
-0.064, -1.440e-6
-0.062, -1.439e-6
-0.060, -1.439e-6
-0.058, -1.438e-6
-0.056, -1.438e-6
-0.054, -1.437e-6
-0.052, -1.437e-6
-0.050, -1.437e-6
-0.048, -1.437e-6
-0.046, -1.436e-6
-0.044, -1.436e-6
-0.042, -1.435e-6
-0.040, -1.434e-6
-0.038, -1.434e-6
-0.036, -1.434e-6
-0.034, -1.433e-6
-0.032, -1.433e-6
-0.030, -1.433e-6
-0.028, -1.433e-6
-0.026, -1.432e-6
-0.024, -1.432e-6
-0.022, -1.431e-6
-0.020, -1.431e-6
-0.018, -1.430e-6
-0.016, -1.430e-6
-0.014, -1.429e-6
-0.012, -1.429e-6
-0.010, -1.428e-6
-0.008, -1.428e-6
-0.006, -1.428e-6
-0.004, -1.427e-6
-0.002, -1.427e-6
0.000, -1.426e-6
