June 16, 2025   16:01:32
Differential Pulse Voltammetry
File: 250616_pprot382int_2007b_0um_ai1_s5_ericmm_gce_dpv.bin
Data Source:  Experiment
Instrument Model:  CHI1040C
Header: 
Note: 

Init E (V) = -0.5
Final E (V) = 0
Incr E (V) = 0.002
Amplitude (V) = 0.05
Pulse Width (sec) = 0.075
Sample Width (sec) = 0.0167
Pulse Period (sec) = 0.5
Quiet Time (sec) = 2
Sensitivity (A/V) = 1e-5

Results:

Channel 1:

Potential/V, Current/A

-0.498, -1.920e-6
-0.496, -1.891e-6
-0.494, -1.866e-6
-0.492, -1.844e-6
-0.490, -1.823e-6
-0.488, -1.804e-6
-0.486, -1.786e-6
-0.484, -1.763e-6
-0.482, -1.744e-6
-0.480, -1.729e-6
-0.478, -1.714e-6
-0.476, -1.701e-6
-0.474, -1.689e-6
-0.472, -1.680e-6
-0.470, -1.673e-6
-0.468, -1.664e-6
-0.466, -1.653e-6
-0.464, -1.643e-6
-0.462, -1.633e-6
-0.460, -1.622e-6
-0.458, -1.609e-6
-0.456, -1.598e-6
-0.454, -1.587e-6
-0.452, -1.576e-6
-0.450, -1.566e-6
-0.448, -1.555e-6
-0.446, -1.544e-6
-0.444, -1.533e-6
-0.442, -1.523e-6
-0.440, -1.513e-6
-0.438, -1.503e-6
-0.436, -1.493e-6
-0.434, -1.483e-6
-0.432, -1.474e-6
-0.430, -1.464e-6
-0.428, -1.455e-6
-0.426, -1.445e-6
-0.424, -1.435e-6
-0.422, -1.425e-6
-0.420, -1.415e-6
-0.418, -1.406e-6
-0.416, -1.398e-6
-0.414, -1.390e-6
-0.412, -1.381e-6
-0.410, -1.372e-6
-0.408, -1.364e-6
-0.406, -1.356e-6
-0.404, -1.348e-6
-0.402, -1.339e-6
-0.400, -1.331e-6
-0.398, -1.323e-6
-0.396, -1.315e-6
-0.394, -1.307e-6
-0.392, -1.300e-6
-0.390, -1.292e-6
-0.388, -1.284e-6
-0.386, -1.276e-6
-0.384, -1.268e-6
-0.382, -1.261e-6
-0.380, -1.254e-6
-0.378, -1.246e-6
-0.376, -1.239e-6
-0.374, -1.233e-6
-0.372, -1.226e-6
-0.370, -1.218e-6
-0.368, -1.212e-6
-0.366, -1.204e-6
-0.364, -1.197e-6
-0.362, -1.191e-6
-0.360, -1.185e-6
-0.358, -1.179e-6
-0.356, -1.174e-6
-0.354, -1.169e-6
-0.352, -1.164e-6
-0.350, -1.160e-6
-0.348, -1.155e-6
-0.346, -1.151e-6
-0.344, -1.148e-6
-0.342, -1.144e-6
-0.340, -1.141e-6
-0.338, -1.138e-6
-0.336, -1.136e-6
-0.334, -1.135e-6
-0.332, -1.134e-6
-0.330, -1.133e-6
-0.328, -1.134e-6
-0.326, -1.134e-6
-0.324, -1.136e-6
-0.322, -1.137e-6
-0.320, -1.137e-6
-0.318, -1.140e-6
-0.316, -1.142e-6
-0.314, -1.145e-6
-0.312, -1.149e-6
-0.310, -1.153e-6
-0.308, -1.158e-6
-0.306, -1.163e-6
-0.304, -1.168e-6
-0.302, -1.174e-6
-0.300, -1.179e-6
-0.298, -1.184e-6
-0.296, -1.190e-6
-0.294, -1.195e-6
-0.292, -1.199e-6
-0.290, -1.203e-6
-0.288, -1.208e-6
-0.286, -1.212e-6
-0.284, -1.215e-6
-0.282, -1.217e-6
-0.280, -1.220e-6
-0.278, -1.222e-6
-0.276, -1.223e-6
-0.274, -1.224e-6
-0.272, -1.224e-6
-0.270, -1.224e-6
-0.268, -1.224e-6
-0.266, -1.223e-6
-0.264, -1.221e-6
-0.262, -1.220e-6
-0.260, -1.217e-6
-0.258, -1.215e-6
-0.256, -1.212e-6
-0.254, -1.209e-6
-0.252, -1.205e-6
-0.250, -1.202e-6
-0.248, -1.199e-6
-0.246, -1.195e-6
-0.244, -1.192e-6
-0.242, -1.188e-6
-0.240, -1.185e-6
-0.238, -1.181e-6
-0.236, -1.178e-6
-0.234, -1.174e-6
-0.232, -1.172e-6
-0.230, -1.169e-6
-0.228, -1.166e-6
-0.226, -1.163e-6
-0.224, -1.160e-6
-0.222, -1.158e-6
-0.220, -1.155e-6
-0.218, -1.152e-6
-0.216, -1.150e-6
-0.214, -1.148e-6
-0.212, -1.146e-6
-0.210, -1.144e-6
-0.208, -1.142e-6
-0.206, -1.141e-6
-0.204, -1.140e-6
-0.202, -1.138e-6
-0.200, -1.137e-6
-0.198, -1.136e-6
-0.196, -1.135e-6
-0.194, -1.134e-6
-0.192, -1.134e-6
-0.190, -1.133e-6
-0.188, -1.132e-6
-0.186, -1.132e-6
-0.184, -1.131e-6
-0.182, -1.131e-6
-0.180, -1.131e-6
-0.178, -1.130e-6
-0.176, -1.131e-6
-0.174, -1.131e-6
-0.172, -1.131e-6
-0.170, -1.130e-6
-0.168, -1.131e-6
-0.166, -1.131e-6
-0.164, -1.131e-6
-0.162, -1.131e-6
-0.160, -1.131e-6
-0.158, -1.132e-6
-0.156, -1.132e-6
-0.154, -1.132e-6
-0.152, -1.133e-6
-0.150, -1.134e-6
-0.148, -1.134e-6
-0.146, -1.134e-6
-0.144, -1.134e-6
-0.142, -1.135e-6
-0.140, -1.135e-6
-0.138, -1.135e-6
-0.136, -1.135e-6
-0.134, -1.136e-6
-0.132, -1.136e-6
-0.130, -1.136e-6
-0.128, -1.137e-6
-0.126, -1.138e-6
-0.124, -1.138e-6
-0.122, -1.138e-6
-0.120, -1.139e-6
-0.118, -1.139e-6
-0.116, -1.140e-6
-0.114, -1.140e-6
-0.112, -1.141e-6
-0.110, -1.141e-6
-0.108, -1.142e-6
-0.106, -1.142e-6
-0.104, -1.142e-6
-0.102, -1.143e-6
-0.100, -1.143e-6
-0.098, -1.143e-6
-0.096, -1.144e-6
-0.094, -1.144e-6
-0.092, -1.145e-6
-0.090, -1.145e-6
-0.088, -1.146e-6
-0.086, -1.146e-6
-0.084, -1.146e-6
-0.082, -1.147e-6
-0.080, -1.147e-6
-0.078, -1.147e-6
-0.076, -1.148e-6
-0.074, -1.148e-6
-0.072, -1.149e-6
-0.070, -1.150e-6
-0.068, -1.150e-6
-0.066, -1.150e-6
-0.064, -1.151e-6
-0.062, -1.151e-6
-0.060, -1.152e-6
-0.058, -1.152e-6
-0.056, -1.153e-6
-0.054, -1.154e-6
-0.052, -1.154e-6
-0.050, -1.155e-6
-0.048, -1.156e-6
-0.046, -1.156e-6
-0.044, -1.157e-6
-0.042, -1.157e-6
-0.040, -1.158e-6
-0.038, -1.158e-6
-0.036, -1.159e-6
-0.034, -1.159e-6
-0.032, -1.159e-6
-0.030, -1.160e-6
-0.028, -1.160e-6
-0.026, -1.161e-6
-0.024, -1.161e-6
-0.022, -1.162e-6
-0.020, -1.162e-6
-0.018, -1.163e-6
-0.016, -1.163e-6
-0.014, -1.164e-6
-0.012, -1.164e-6
-0.010, -1.164e-6
-0.008, -1.165e-6
-0.006, -1.165e-6
-0.004, -1.166e-6
-0.002, -1.166e-6
0.000, -1.166e-6
