June 16, 2025   16:25:38
Differential Pulse Voltammetry
File: 250616_pprot382int_2007b_1um_ai1_s10_ericmm_gce_dpv.bin
Data Source:  Experiment
Instrument Model:  CHI1040C
Header: 
Note: 

Init E (V) = -0.5
Final E (V) = 0
Incr E (V) = 0.002
Amplitude (V) = 0.05
Pulse Width (sec) = 0.075
Sample Width (sec) = 0.0167
Pulse Period (sec) = 0.5
Quiet Time (sec) = 2
Sensitivity (A/V) = 1e-5

Results:

Channel 1:
Ep = -0.124V
ip = -3.014e-8A
Ap = -2.849e-9VA

Potential/V, Current/A

-0.498, -2.362e-6
-0.496, -2.337e-6
-0.494, -2.315e-6
-0.492, -2.296e-6
-0.490, -2.279e-6
-0.488, -2.263e-6
-0.486, -2.248e-6
-0.484, -2.234e-6
-0.482, -2.219e-6
-0.480, -2.205e-6
-0.478, -2.192e-6
-0.476, -2.179e-6
-0.474, -2.166e-6
-0.472, -2.154e-6
-0.470, -2.142e-6
-0.468, -2.129e-6
-0.466, -2.117e-6
-0.464, -2.105e-6
-0.462, -2.093e-6
-0.460, -2.082e-6
-0.458, -2.070e-6
-0.456, -2.060e-6
-0.454, -2.050e-6
-0.452, -2.039e-6
-0.450, -2.029e-6
-0.448, -2.019e-6
-0.446, -2.009e-6
-0.444, -1.999e-6
-0.442, -1.989e-6
-0.440, -1.980e-6
-0.438, -1.970e-6
-0.436, -1.960e-6
-0.434, -1.951e-6
-0.432, -1.942e-6
-0.430, -1.934e-6
-0.428, -1.925e-6
-0.426, -1.916e-6
-0.424, -1.908e-6
-0.422, -1.900e-6
-0.420, -1.892e-6
-0.418, -1.884e-6
-0.416, -1.877e-6
-0.414, -1.869e-6
-0.412, -1.862e-6
-0.410, -1.855e-6
-0.408, -1.847e-6
-0.406, -1.840e-6
-0.404, -1.833e-6
-0.402, -1.826e-6
-0.400, -1.819e-6
-0.398, -1.813e-6
-0.396, -1.806e-6
-0.394, -1.799e-6
-0.392, -1.793e-6
-0.390, -1.787e-6
-0.388, -1.780e-6
-0.386, -1.774e-6
-0.384, -1.768e-6
-0.382, -1.762e-6
-0.380, -1.756e-6
-0.378, -1.750e-6
-0.376, -1.744e-6
-0.374, -1.739e-6
-0.372, -1.733e-6
-0.370, -1.728e-6
-0.368, -1.722e-6
-0.366, -1.717e-6
-0.364, -1.711e-6
-0.362, -1.706e-6
-0.360, -1.702e-6
-0.358, -1.697e-6
-0.356, -1.692e-6
-0.354, -1.688e-6
-0.352, -1.684e-6
-0.350, -1.680e-6
-0.348, -1.676e-6
-0.346, -1.673e-6
-0.344, -1.670e-6
-0.342, -1.667e-6
-0.340, -1.665e-6
-0.338, -1.662e-6
-0.336, -1.661e-6
-0.334, -1.660e-6
-0.332, -1.659e-6
-0.330, -1.659e-6
-0.328, -1.660e-6
-0.326, -1.660e-6
-0.324, -1.662e-6
-0.322, -1.663e-6
-0.320, -1.666e-6
-0.318, -1.669e-6
-0.316, -1.672e-6
-0.314, -1.676e-6
-0.312, -1.680e-6
-0.310, -1.685e-6
-0.308, -1.690e-6
-0.306, -1.694e-6
-0.304, -1.700e-6
-0.302, -1.705e-6
-0.300, -1.711e-6
-0.298, -1.716e-6
-0.296, -1.722e-6
-0.294, -1.728e-6
-0.292, -1.733e-6
-0.290, -1.737e-6
-0.288, -1.742e-6
-0.286, -1.747e-6
-0.284, -1.750e-6
-0.282, -1.753e-6
-0.280, -1.757e-6
-0.278, -1.759e-6
-0.276, -1.761e-6
-0.274, -1.762e-6
-0.272, -1.764e-6
-0.270, -1.765e-6
-0.268, -1.765e-6
-0.266, -1.765e-6
-0.264, -1.765e-6
-0.262, -1.765e-6
-0.260, -1.765e-6
-0.258, -1.763e-6
-0.256, -1.763e-6
-0.254, -1.761e-6
-0.252, -1.761e-6
-0.250, -1.759e-6
-0.248, -1.758e-6
-0.246, -1.756e-6
-0.244, -1.755e-6
-0.242, -1.753e-6
-0.240, -1.752e-6
-0.238, -1.750e-6
-0.236, -1.749e-6
-0.234, -1.747e-6
-0.232, -1.746e-6
-0.230, -1.745e-6
-0.228, -1.743e-6
-0.226, -1.741e-6
-0.224, -1.741e-6
-0.222, -1.740e-6
-0.220, -1.739e-6
-0.218, -1.738e-6
-0.216, -1.738e-6
-0.214, -1.737e-6
-0.212, -1.737e-6
-0.210, -1.736e-6
-0.208, -1.735e-6
-0.206, -1.735e-6
-0.204, -1.735e-6
-0.202, -1.735e-6
-0.200, -1.735e-6
-0.198, -1.735e-6
-0.196, -1.736e-6
-0.194, -1.736e-6
-0.192, -1.736e-6
-0.190, -1.736e-6
-0.188, -1.737e-6
-0.186, -1.736e-6
-0.184, -1.737e-6
-0.182, -1.738e-6
-0.180, -1.739e-6
-0.178, -1.738e-6
-0.176, -1.739e-6
-0.174, -1.740e-6
-0.172, -1.741e-6
-0.170, -1.741e-6
-0.168, -1.742e-6
-0.166, -1.743e-6
-0.164, -1.744e-6
-0.162, -1.744e-6
-0.160, -1.745e-6
-0.158, -1.746e-6
-0.156, -1.746e-6
-0.154, -1.746e-6
-0.152, -1.748e-6
-0.150, -1.750e-6
-0.148, -1.750e-6
-0.146, -1.750e-6
-0.144, -1.751e-6
-0.142, -1.752e-6
-0.140, -1.753e-6
-0.138, -1.753e-6
-0.136, -1.754e-6
-0.134, -1.754e-6
-0.132, -1.754e-6
-0.130, -1.754e-6
-0.128, -1.755e-6
-0.126, -1.755e-6
-0.124, -1.755e-6
-0.122, -1.755e-6
-0.120, -1.755e-6
-0.118, -1.755e-6
-0.116, -1.754e-6
-0.114, -1.754e-6
-0.112, -1.754e-6
-0.110, -1.753e-6
-0.108, -1.752e-6
-0.106, -1.751e-6
-0.104, -1.751e-6
-0.102, -1.750e-6
-0.100, -1.749e-6
-0.098, -1.748e-6
-0.096, -1.748e-6
-0.094, -1.747e-6
-0.092, -1.746e-6
-0.090, -1.744e-6
-0.088, -1.744e-6
-0.086, -1.743e-6
-0.084, -1.742e-6
-0.082, -1.740e-6
-0.080, -1.740e-6
-0.078, -1.738e-6
-0.076, -1.737e-6
-0.074, -1.736e-6
-0.072, -1.735e-6
-0.070, -1.734e-6
-0.068, -1.733e-6
-0.066, -1.732e-6
-0.064, -1.731e-6
-0.062, -1.730e-6
-0.060, -1.729e-6
-0.058, -1.728e-6
-0.056, -1.727e-6
-0.054, -1.726e-6
-0.052, -1.725e-6
-0.050, -1.724e-6
-0.048, -1.724e-6
-0.046, -1.723e-6
-0.044, -1.722e-6
-0.042, -1.721e-6
-0.040, -1.720e-6
-0.038, -1.719e-6
-0.036, -1.718e-6
-0.034, -1.717e-6
-0.032, -1.716e-6
-0.030, -1.716e-6
-0.028, -1.715e-6
-0.026, -1.714e-6
-0.024, -1.713e-6
-0.022, -1.713e-6
-0.020, -1.712e-6
-0.018, -1.710e-6
-0.016, -1.710e-6
-0.014, -1.709e-6
-0.012, -1.709e-6
-0.010, -1.707e-6
-0.008, -1.707e-6
-0.006, -1.706e-6
-0.004, -1.705e-6
-0.002, -1.704e-6
0.000, -1.703e-6
