June 16, 2025   15:30:00
Differential Pulse Voltammetry
File: 250616_blank_ericmm_gce_dpv
Data Source:  Experiment
Instrument Model:  CHI1040C
Header: 
Note: 

Init E (V) = -0.5
Final E (V) = 0
Incr E (V) = 0.002
Amplitude (V) = 0.05
Pulse Width (sec) = 0.075
Sample Width (sec) = 0.0167
Pulse Period (sec) = 0.5
Quiet Time (sec) = 2
Sensitivity (A/V) = 1e-5

Results:

Channel 1:

Potential/V, Current/A

-0.498, -2.611e-6
-0.496, -2.555e-6
-0.494, -2.509e-6
-0.492, -2.468e-6
-0.490, -2.433e-6
-0.488, -2.402e-6
-0.486, -2.375e-6
-0.484, -2.350e-6
-0.482, -2.327e-6
-0.480, -2.306e-6
-0.478, -2.287e-6
-0.476, -2.269e-6
-0.474, -2.251e-6
-0.472, -2.234e-6
-0.470, -2.219e-6
-0.468, -2.204e-6
-0.466, -2.190e-6
-0.464, -2.176e-6
-0.462, -2.163e-6
-0.460, -2.151e-6
-0.458, -2.138e-6
-0.456, -2.127e-6
-0.454, -2.115e-6
-0.452, -2.105e-6
-0.450, -2.094e-6
-0.448, -2.085e-6
-0.446, -2.074e-6
-0.444, -2.064e-6
-0.442, -2.055e-6
-0.440, -2.046e-6
-0.438, -2.037e-6
-0.436, -2.028e-6
-0.434, -2.019e-6
-0.432, -2.010e-6
-0.430, -2.003e-6
-0.428, -1.994e-6
-0.426, -1.987e-6
-0.424, -1.979e-6
-0.422, -1.973e-6
-0.420, -1.965e-6
-0.418, -1.957e-6
-0.416, -1.951e-6
-0.414, -1.944e-6
-0.412, -1.938e-6
-0.410, -1.931e-6
-0.408, -1.925e-6
-0.406, -1.918e-6
-0.404, -1.913e-6
-0.402, -1.906e-6
-0.400, -1.901e-6
-0.398, -1.896e-6
-0.396, -1.891e-6
-0.394, -1.885e-6
-0.392, -1.880e-6
-0.390, -1.875e-6
-0.388, -1.870e-6
-0.386, -1.865e-6
-0.384, -1.861e-6
-0.382, -1.856e-6
-0.380, -1.853e-6
-0.378, -1.848e-6
-0.376, -1.844e-6
-0.374, -1.840e-6
-0.372, -1.836e-6
-0.370, -1.831e-6
-0.368, -1.827e-6
-0.366, -1.823e-6
-0.364, -1.819e-6
-0.362, -1.815e-6
-0.360, -1.811e-6
-0.358, -1.808e-6
-0.356, -1.804e-6
-0.354, -1.801e-6
-0.352, -1.797e-6
-0.350, -1.794e-6
-0.348, -1.791e-6
-0.346, -1.787e-6
-0.344, -1.785e-6
-0.342, -1.782e-6
-0.340, -1.779e-6
-0.338, -1.775e-6
-0.336, -1.773e-6
-0.334, -1.771e-6
-0.332, -1.768e-6
-0.330, -1.765e-6
-0.328, -1.763e-6
-0.326, -1.760e-6
-0.324, -1.758e-6
-0.322, -1.756e-6
-0.320, -1.753e-6
-0.318, -1.751e-6
-0.316, -1.749e-6
-0.314, -1.747e-6
-0.312, -1.745e-6
-0.310, -1.743e-6
-0.308, -1.741e-6
-0.306, -1.739e-6
-0.304, -1.737e-6
-0.302, -1.736e-6
-0.300, -1.735e-6
-0.298, -1.733e-6
-0.296, -1.731e-6
-0.294, -1.731e-6
-0.292, -1.729e-6
-0.290, -1.728e-6
-0.288, -1.727e-6
-0.286, -1.727e-6
-0.284, -1.726e-6
-0.282, -1.724e-6
-0.280, -1.724e-6
-0.278, -1.723e-6
-0.276, -1.723e-6
-0.274, -1.722e-6
-0.272, -1.723e-6
-0.270, -1.722e-6
-0.268, -1.722e-6
-0.266, -1.721e-6
-0.264, -1.721e-6
-0.262, -1.721e-6
-0.260, -1.721e-6
-0.258, -1.720e-6
-0.256, -1.720e-6
-0.254, -1.721e-6
-0.252, -1.720e-6
-0.250, -1.720e-6
-0.248, -1.721e-6
-0.246, -1.721e-6
-0.244, -1.722e-6
-0.242, -1.721e-6
-0.240, -1.722e-6
-0.238, -1.722e-6
-0.236, -1.722e-6
-0.234, -1.723e-6
-0.232, -1.723e-6
-0.230, -1.724e-6
-0.228, -1.724e-6
-0.226, -1.725e-6
-0.224, -1.725e-6
-0.222, -1.726e-6
-0.220, -1.726e-6
-0.218, -1.726e-6
-0.216, -1.727e-6
-0.214, -1.727e-6
-0.212, -1.727e-6
-0.210, -1.728e-6
-0.208, -1.728e-6
-0.206, -1.729e-6
-0.204, -1.729e-6
-0.202, -1.730e-6
-0.200, -1.730e-6
-0.198, -1.731e-6
-0.196, -1.731e-6
-0.194, -1.731e-6
-0.192, -1.733e-6
-0.190, -1.733e-6
-0.188, -1.733e-6
-0.186, -1.734e-6
-0.184, -1.735e-6
-0.182, -1.736e-6
-0.180, -1.736e-6
-0.178, -1.736e-6
-0.176, -1.737e-6
-0.174, -1.737e-6
-0.172, -1.738e-6
-0.170, -1.738e-6
-0.168, -1.738e-6
-0.166, -1.739e-6
-0.164, -1.739e-6
-0.162, -1.739e-6
-0.160, -1.739e-6
-0.158, -1.740e-6
-0.156, -1.740e-6
-0.154, -1.739e-6
-0.152, -1.740e-6
-0.150, -1.740e-6
-0.148, -1.739e-6
-0.146, -1.739e-6
-0.144, -1.739e-6
-0.142, -1.738e-6
-0.140, -1.738e-6
-0.138, -1.737e-6
-0.136, -1.737e-6
-0.134, -1.735e-6
-0.132, -1.735e-6
-0.130, -1.733e-6
-0.128, -1.732e-6
-0.126, -1.731e-6
-0.124, -1.730e-6
-0.122, -1.729e-6
-0.120, -1.728e-6
-0.118, -1.726e-6
-0.116, -1.725e-6
-0.114, -1.723e-6
-0.112, -1.722e-6
-0.110, -1.720e-6
-0.108, -1.718e-6
-0.106, -1.716e-6
-0.104, -1.714e-6
-0.102, -1.712e-6
-0.100, -1.710e-6
-0.098, -1.708e-6
-0.096, -1.706e-6
-0.094, -1.704e-6
-0.092, -1.702e-6
-0.090, -1.699e-6
-0.088, -1.697e-6
-0.086, -1.695e-6
-0.084, -1.693e-6
-0.082, -1.690e-6
-0.080, -1.688e-6
-0.078, -1.686e-6
-0.076, -1.683e-6
-0.074, -1.681e-6
-0.072, -1.679e-6
-0.070, -1.676e-6
-0.068, -1.674e-6
-0.066, -1.671e-6
-0.064, -1.669e-6
-0.062, -1.666e-6
-0.060, -1.664e-6
-0.058, -1.661e-6
-0.056, -1.658e-6
-0.054, -1.656e-6
-0.052, -1.653e-6
-0.050, -1.651e-6
-0.048, -1.649e-6
-0.046, -1.646e-6
-0.044, -1.644e-6
-0.042, -1.641e-6
-0.040, -1.639e-6
-0.038, -1.636e-6
-0.036, -1.633e-6
-0.034, -1.630e-6
-0.032, -1.628e-6
-0.030, -1.625e-6
-0.028, -1.622e-6
-0.026, -1.619e-6
-0.024, -1.617e-6
-0.022, -1.615e-6
-0.020, -1.612e-6
-0.018, -1.609e-6
-0.016, -1.607e-6
-0.014, -1.604e-6
-0.012, -1.602e-6
-0.010, -1.599e-6
-0.008, -1.597e-6
-0.006, -1.594e-6
-0.004, -1.592e-6
-0.002, -1.588e-6
0.000, -1.585e-6
